# m_LQ [GeV] 	σ (NLO) [pb] 	δ_stat 	δ_scaleUp (%) 	δ_scaleDown (%) 	δ_PDFUp (%) 	δ_PDFDown (%)
200 	6.352e+01 	4.4e-01 	12.9 	12.5 	2.7 	2.7
210 	5.010e+01 	3.4e-01 	12.4 	12.4 	2.8 	2.8
220 	3.973e+01 	2.3e-01 	12.6 	12.5 	2.9 	2.9
230 	3.206e+01 	2.1e-01 	12.9 	12.7 	2.9 	2.9
240 	2.596e+01 	1.5e-01 	12.1 	12.4 	3.0 	3.0
250 	2.133e+01 	1.5e-01 	12.0 	12.4 	3.1 	3.1
260 	1.749e+01 	9.4e-02 	12.2 	12.6 	3.2 	3.2
270 	1.452e+01 	9.2e-02 	12.4 	12.7 	3.2 	3.2
280 	1.192e+01 	6.1e-02 	12.1 	12.6 	3.3 	3.3
290 	1.000e+01 	6.2e-02 	12.1 	12.6 	3.4 	3.4
300 	8.402e+00 	5.7e-02 	12.2 	12.7 	3.4 	3.4
310 	7.025e+00 	4.6e-02 	11.6 	12.4 	3.5 	3.5
320 	5.995e+00 	3.9e-02 	12.1 	12.7 	3.7 	3.7
330 	5.102e+00 	3.1e-02 	11.5 	12.4 	3.7 	3.7
340 	4.345e+00 	2.5e-02 	11.8 	12.6 	3.7 	3.7
350 	3.744e+00 	2.6e-02 	12.0 	12.8 	3.8 	3.8
360 	3.203e+00 	2.1e-02 	11.8 	12.7 	3.9 	3.9
370 	2.783e+00 	2.1e-02 	11.9 	12.8 	4.0 	4.0
380 	2.384e+00 	1.6e-02 	11.4 	12.6 	4.0 	4.0
390 	2.062e+00 	1.2e-02 	11.3 	12.5 	4.1 	4.1
400 	1.813e+00 	1.3e-02 	11.6 	12.7 	4.1 	4.1
410 	1.561e+00 	9.4e-03 	11.3 	12.6 	4.2 	4.2
420 	1.371e+00 	8.6e-03 	11.6 	12.8 	4.3 	4.3
430 	1.199e+00 	7.5e-03 	11.9 	12.9 	4.4 	4.4
440 	1.062e+00 	6.5e-03 	11.5 	12.8 	4.4 	4.4
450 	9.321e-01 	5.8e-03 	12.1 	13.1 	4.5 	4.5
460 	8.180e-01 	4.9e-03 	12.0 	13.0 	4.6 	4.6
470 	7.236e-01 	4.2e-03 	11.0 	12.6 	4.6 	4.6
480 	6.396e-01 	3.7e-03 	11.4 	12.8 	4.7 	4.7
490 	5.617e-01 	3.3e-03 	11.2 	12.7 	4.8 	4.8
500 	5.010e-01 	2.9e-03 	11.2 	12.7 	4.8 	4.8
510 	4.514e-01 	2.5e-03 	11.2 	12.7 	4.9 	4.9
520 	4.040e-01 	2.4e-03 	11.6 	12.9 	4.9 	4.9
530 	3.598e-01 	2.2e-03 	11.6 	12.9 	5.1 	5.1
540 	3.265e-01 	2.1e-03 	11.6 	13.0 	5.1 	5.1
550 	2.887e-01 	1.7e-03 	11.2 	12.8 	5.2 	5.2
560 	2.598e-01 	1.5e-03 	11.4 	12.9 	5.2 	5.2
570 	2.340e-01 	1.4e-03 	11.7 	13.1 	5.3 	5.3
580 	2.091e-01 	1.2e-03 	11.0 	12.8 	5.4 	5.4
590 	1.899e-01 	1.2e-03 	11.5 	13.0 	5.4 	5.4
600 	1.706e-01 	9.8e-04 	11.7 	13.1 	5.5 	5.5
610 	1.541e-01 	9.1e-04 	11.3 	13.0 	5.5 	5.5
620 	1.385e-01 	8.0e-04 	11.7 	13.2 	5.7 	5.7
630 	1.261e-01 	8.4e-04 	10.5 	12.6 	5.7 	5.7
640 	1.156e-01 	7.4e-04 	11.3 	13.0 	5.7 	5.7
650 	1.034e-01 	6.1e-04 	11.1 	12.9 	5.8 	5.8
660 	9.401e-02 	5.2e-04 	11.6 	13.2 	5.9 	5.9
670 	8.593e-02 	4.9e-04 	11.4 	13.1 	6.0 	6.0
680 	7.781e-02 	4.6e-04 	11.5 	13.2 	6.0 	6.0
690 	7.087e-02 	4.1e-04 	11.3 	13.1 	6.1 	6.1
700 	6.449e-02 	3.7e-04 	11.7 	13.3 	6.2 	6.2
710 	5.861e-02 	3.2e-04 	11.3 	13.1 	6.2 	6.2
720 	5.451e-02 	3.6e-04 	11.8 	13.3 	6.3 	6.3
730 	4.918e-02 	2.7e-04 	11.7 	13.3 	6.4 	6.4
740 	4.532e-02 	2.1e-04 	11.5 	13.2 	6.5 	6.5
750 	4.100e-02 	2.3e-04 	11.4 	13.2 	6.5 	6.5
760 	3.798e-02 	2.1e-04 	11.2 	13.1 	6.6 	6.6
770 	3.445e-02 	2.0e-04 	11.6 	13.3 	6.6 	6.6
780 	3.188e-02 	1.8e-04 	11.5 	13.3 	6.7 	6.7
790 	2.908e-02 	1.7e-04 	11.3 	13.2 	6.8 	6.8
800 	2.680e-02 	1.5e-04 	11.6 	13.4 	6.8 	6.8
810 	2.437e-02 	1.4e-04 	11.5 	13.3 	6.9 	6.9
820 	2.277e-02 	2.0e-04 	11.6 	13.4 	6.9 	6.9
830 	2.104e-02 	1.1e-04 	11.3 	13.2 	7.0 	7.0
840 	1.906e-02 	1.1e-04 	11.8 	13.5 	7.1 	7.1
850 	1.770e-02 	9.7e-05 	11.3 	13.3 	7.2 	7.2
860 	1.628e-02 	8.8e-05 	11.5 	13.4 	7.2 	7.2
870 	1.503e-02 	7.9e-05 	11.7 	13.5 	7.3 	7.3
880 	1.386e-02 	7.6e-05 	11.2 	13.3 	7.4 	7.4
890 	1.293e-02 	7.6e-05 	11.4 	13.3 	7.5 	7.5
900 	1.190e-02 	6.7e-05 	11.2 	13.3 	7.5 	7.5
910 	1.098e-02 	5.9e-05 	11.3 	13.4 	7.7 	7.7
920 	1.012e-02 	4.6e-05 	11.6 	13.5 	7.7 	7.7
930 	9.435e-03 	5.4e-05 	11.2 	13.3 	7.7 	7.7
940 	8.646e-03 	4.5e-05 	11.5 	13.5 	7.8 	7.8
950 	8.060e-03 	4.3e-05 	11.6 	13.5 	7.9 	7.9
960 	7.462e-03 	3.9e-05 	11.5 	13.5 	8.0 	8.0
970 	6.913e-03 	3.5e-05 	11.3 	13.4 	8.1 	8.1
980 	6.393e-03 	3.8e-05 	11.7 	13.6 	8.1 	8.1
990 	5.979e-03 	4.0e-05 	11.6 	13.6 	8.3 	8.3
1000 	5.515e-03 	2.9e-05 	11.4 	13.5 	8.3 	8.3
1010 	5.167e-03 	2.7e-05 	11.6 	13.6 	8.4 	8.4
1020 	4.770e-03 	2.6e-05 	11.8 	13.7 	8.5 	8.5
1030 	4.399e-03 	2.5e-05 	11.5 	13.6 	8.6 	8.6
1040 	4.139e-03 	2.3e-05 	11.7 	13.7 	8.6 	8.6
1050 	3.851e-03 	2.0e-05 	12.1 	13.8 	8.6 	8.6
1060 	3.579e-03 	1.9e-05 	11.5 	13.6 	8.8 	8.8
1070 	3.306e-03 	1.3e-05 	11.7 	13.7 	8.9 	8.9
1080 	3.102e-03 	1.6e-05 	11.4 	13.6 	8.9 	8.9
1090 	2.897e-03 	1.6e-05 	11.9 	13.8 	9.1 	9.1
1100 	2.696e-03 	1.7e-05 	11.6 	13.7 	9.1 	9.1
1110 	2.529e-03 	1.3e-05 	11.5 	13.7 	9.1 	9.1
1120 	2.347e-03 	1.3e-05 	12.1 	13.9 	9.2 	9.2
1130 	2.178e-03 	1.2e-05 	11.5 	13.7 	9.3 	9.3
1140 	2.038e-03 	1.1e-05 	11.8 	13.8 	9.4 	9.4
1150 	1.915e-03 	1.1e-05 	11.7 	13.8 	9.4 	9.4
1160 	1.768e-03 	9.2e-06 	11.4 	13.7 	9.5 	9.5
1170 	1.649e-03 	8.5e-06 	11.7 	13.8 	9.6 	9.6
1180 	1.527e-03 	7.9e-06 	11.9 	13.9 	9.7 	9.7
1190 	1.447e-03 	7.7e-06 	11.6 	13.8 	9.8 	9.8
1200 	1.346e-03 	7.0e-06 	11.9 	13.9 	9.9 	9.9
1210 	1.271e-03 	8.6e-06 	12.6 	14.2 	9.9 	9.9
1220 	1.169e-03 	6.1e-06 	11.8 	13.9 	10.2 	10.2
1230 	1.114e-03 	6.0e-06 	12.0 	14.0 	10.2 	10.2
1240 	1.037e-03 	5.5e-06 	11.7 	13.9 	10.2 	10.2
1250 	9.656e-04 	4.9e-06 	11.8 	13.9 	10.4 	10.4
1260 	8.998e-04 	4.7e-06 	11.8 	13.9 	10.4 	10.4
1270 	8.506e-04 	4.6e-06 	12.1 	14.1 	10.5 	10.5
1280 	8.009e-04 	5.1e-06 	12.1 	14.1 	10.6 	10.6
1290 	7.435e-04 	3.9e-06 	12.3 	14.2 	10.7 	10.7
1300 	6.991e-04 	3.7e-06 	12.0 	14.1 	10.8 	10.8
1310 	6.530e-04 	3.4e-06 	12.0 	14.1 	10.9 	10.9
1320 	6.067e-04 	3.2e-06 	12.0 	14.1 	10.9 	10.9
1330 	5.752e-04 	3.3e-06 	12.5 	14.3 	11.1 	11.1
1340 	5.332e-04 	2.8e-06 	12.0 	14.1 	11.2 	11.2
1350 	5.026e-04 	2.7e-06 	12.4 	14.3 	11.2 	11.2
1360 	4.760e-04 	2.5e-06 	12.2 	14.2 	11.4 	11.4
1370 	4.421e-04 	2.3e-06 	12.2 	14.2 	11.4 	11.4
1380 	4.177e-04 	2.3e-06 	12.2 	14.2 	11.5 	11.5
1390 	3.908e-04 	2.1e-06 	12.2 	14.2 	11.7 	11.7
1400 	3.675e-04 	2.0e-06 	12.4 	14.4 	11.8 	11.8
1410 	3.431e-04 	1.8e-06 	12.5 	14.4 	11.8 	11.8
1420 	3.208e-04 	1.7e-06 	12.4 	14.4 	11.9 	11.9
1430 	3.052e-04 	1.6e-06 	12.3 	14.3 	12.1 	12.1
1440 	2.839e-04 	1.5e-06 	12.4 	14.4 	12.1 	12.1
1450 	2.704e-04 	1.8e-06 	12.9 	14.6 	12.2 	12.2
1460 	2.520e-04 	1.3e-06 	12.3 	14.4 	12.4 	12.4
1470 	2.377e-04 	1.2e-06 	12.3 	14.4 	12.4 	12.4
1480 	2.243e-04 	1.2e-06 	12.7 	14.5 	12.6 	12.6
1490 	2.093e-04 	1.1e-06 	12.6 	14.5 	12.7 	12.7
1500 	1.964e-04 	1.0e-06 	12.6 	14.5 	12.7 	12.7
1510 	1.857e-04 	9.5e-07 	12.4 	14.5 	12.9 	12.9
1520 	1.737e-04 	9.2e-07 	12.6 	14.5 	13.0 	13.0
1530 	1.658e-04 	1.2e-06 	12.8 	14.6 	13.1 	13.1
1540 	1.527e-04 	7.8e-07 	12.6 	14.6 	13.2 	13.2
1550 	1.449e-04 	7.6e-07 	12.6 	14.6 	13.3 	13.3
1560 	1.368e-04 	8.3e-07 	12.9 	14.7 	13.4 	13.4
1570 	1.273e-04 	6.7e-07 	12.7 	14.7 	13.5 	13.5
1580 	1.211e-04 	6.1e-07 	12.8 	14.7 	13.6 	13.6
1590 	1.141e-04 	6.0e-07 	12.7 	14.7 	13.8 	13.8
1600 	1.065e-04 	5.5e-07 	12.5 	14.6 	13.8 	13.8
1610 	1.011e-04 	5.5e-07 	12.7 	14.7 	14.0 	14.0
1620 	9.495e-05 	5.0e-07 	12.8 	14.7 	14.0 	14.0
1630 	8.928e-05 	5.3e-07 	12.9 	14.8 	14.3 	14.3
1640 	8.374e-05 	4.3e-07 	12.6 	14.7 	14.3 	14.3
1650 	7.930e-05 	4.1e-07 	13.0 	14.9 	14.4 	14.4
1660 	7.478e-05 	4.0e-07 	12.7 	14.8 	14.5 	14.5
1670 	7.063e-05 	3.9e-07 	13.2 	15.0 	14.7 	14.7
1680 	6.654e-05 	3.5e-07 	12.8 	14.8 	14.7 	14.7
1690 	6.266e-05 	3.3e-07 	13.1 	14.9 	14.9 	14.9
1700 	5.903e-05 	3.1e-07 	13.3 	15.1 	15.1 	15.1
1710 	5.565e-05 	3.1e-07 	13.2 	15.0 	15.2 	15.2
1720 	5.229e-05 	3.0e-07 	13.2 	15.1 	15.3 	15.3
1730 	4.952e-05 	2.6e-07 	13.1 	15.0 	15.5 	15.5
1740 	4.649e-05 	2.5e-07 	13.2 	15.0 	15.5 	15.5
1750 	4.382e-05 	2.4e-07 	13.2 	15.1 	15.7 	15.7
1760 	4.125e-05 	2.2e-07 	12.9 	15.0 	15.8 	15.8
1770 	3.897e-05 	2.4e-07 	13.6 	15.3 	15.9 	15.9
1780 	3.703e-05 	1.9e-07 	13.0 	15.0 	16.1 	16.1
1790 	3.446e-05 	1.8e-07 	13.3 	15.1 	16.2 	16.2
1800 	3.288e-05 	1.9e-07 	13.5 	15.2 	16.4 	16.4
1810 	3.096e-05 	1.7e-07 	13.4 	15.2 	16.4 	16.4
1820 	2.892e-05 	1.6e-07 	13.1 	15.1 	16.5 	16.5
1830 	2.732e-05 	1.5e-07 	13.6 	15.3 	16.7 	16.7
1840 	2.570e-05 	1.4e-07 	13.4 	15.2 	16.9 	16.9
1850 	2.439e-05 	1.3e-07 	13.6 	15.3 	17.0 	17.0
1860 	2.315e-05 	1.4e-07 	13.9 	15.5 	17.2 	17.2
1870 	2.176e-05 	1.2e-07 	13.4 	15.3 	17.3 	17.3
1880 	2.041e-05 	1.1e-07 	13.7 	15.4 	17.5 	17.5
1890 	1.939e-05 	1.1e-07 	13.8 	15.5 	17.5 	17.5
1900 	1.828e-05 	9.5e-08 	13.5 	15.3 	17.7 	17.7
1910 	1.740e-05 	9.3e-08 	13.8 	15.5 	17.8 	17.8
1920 	1.639e-05 	8.5e-08 	13.7 	15.4 	18.0 	18.0
1930 	1.537e-05 	7.9e-08 	13.6 	15.4 	18.2 	18.2
1940 	1.455e-05 	7.9e-08 	13.8 	15.5 	18.3 	18.3
1950 	1.376e-05 	7.1e-08 	14.1 	15.6 	18.6 	18.6
1960 	1.298e-05 	6.7e-08 	13.8 	15.5 	18.6 	18.6
1970 	1.222e-05 	6.5e-08 	13.9 	15.6 	18.8 	18.8
1980 	1.157e-05 	6.2e-08 	13.9 	15.6 	19.1 	19.1
1990 	1.093e-05 	6.3e-08 	13.9 	15.6 	19.0 	19.0
2000 	1.042e-05 	6.4e-08 	14.3 	15.8 	19.4 	19.4
2010 	9.700e-06 	5.1e-08 	14.4 	15.8 	19.5 	19.5
2020 	9.199e-06 	4.8e-08 	14.3 	15.8 	19.6 	19.6
2030 	8.707e-06 	4.5e-08 	14.0 	15.7 	19.7 	19.7
2040 	8.174e-06 	4.8e-08 	14.0 	15.7 	20.0 	20.0
2050 	7.690e-06 	4.3e-08 	14.1 	15.7 	20.1 	20.1
2060 	7.306e-06 	4.0e-08 	14.2 	15.8 	20.3 	20.3
2070 	6.972e-06 	3.2e-08 	14.2 	15.7 	20.6 	20.6
2080 	6.526e-06 	3.5e-08 	13.8 	15.6 	20.7 	20.7
2090 	6.177e-06 	3.4e-08 	14.4 	15.9 	20.9 	20.9
2100 	5.865e-06 	3.9e-08 	14.5 	15.9 	21.0 	21.0
2110 	5.532e-06 	3.2e-08 	14.3 	15.9 	21.2 	21.2
2120 	5.219e-06 	2.8e-08 	14.3 	15.8 	21.5 	21.5
2130 	4.913e-06 	2.6e-08 	14.3 	15.8 	21.6 	21.6
2140 	4.669e-06 	2.6e-08 	14.6 	16.0 	22.0 	22.0
2150 	4.401e-06 	2.4e-08 	14.6 	16.0 	21.9 	21.9
2160 	4.138e-06 	2.2e-08 	14.2 	15.8 	22.4 	22.4
2170 	3.919e-06 	2.3e-08 	14.6 	16.0 	22.4 	22.4
2180 	3.720e-06 	2.1e-08 	14.5 	16.0 	22.5 	22.5
2190 	3.521e-06 	2.0e-08 	14.6 	16.0 	22.9 	22.9
2200 	3.286e-06 	1.7e-08 	14.5 	16.0 	23.1 	23.1
2210 	3.131e-06 	1.7e-08 	14.6 	16.0 	23.3 	23.3
2220 	2.936e-06 	1.6e-08 	14.7 	16.1 	23.5 	23.5
2230 	2.775e-06 	1.6e-08 	14.6 	16.1 	23.6 	23.6
2240 	2.649e-06 	1.5e-08 	14.7 	16.1 	24.0 	24.0
2250 	2.491e-06 	1.4e-08 	15.0 	16.2 	24.3 	24.3
2260 	2.355e-06 	1.4e-08 	14.9 	16.2 	24.5 	24.5
2270 	2.225e-06 	1.2e-08 	14.9 	16.2 	24.7 	24.7
2280 	2.107e-06 	1.1e-08 	14.8 	16.2 	25.2 	25.2
2290 	1.989e-06 	1.1e-08 	14.9 	16.2 	25.3 	25.3
2300 	1.861e-06 	1.0e-08 	14.8 	16.2 	25.6 	25.6
2310 	1.768e-06 	1.0e-08 	14.8 	16.2 	26.0 	26.0
2320 	1.674e-06 	9.3e-09 	15.0 	16.3 	26.2 	26.2
2330 	1.595e-06 	8.8e-09 	15.1 	16.3 	26.5 	26.5
2340 	1.503e-06 	8.5e-09 	15.3 	16.4 	27.1 	27.1
2350 	1.418e-06 	7.8e-09 	14.8 	16.2 	26.9 	26.9
2360 	1.336e-06 	7.5e-09 	15.2 	16.4 	27.4 	27.4
2370 	1.268e-06 	7.1e-09 	15.0 	16.3 	27.7 	27.7
2380 	1.203e-06 	6.9e-09 	15.2 	16.4 	28.0 	28.0
2390 	1.130e-06 	6.3e-09 	15.2 	16.4 	28.1 	28.1
2400 	1.060e-06 	6.0e-09 	15.0 	16.3 	28.7 	28.7
2410 	1.018e-06 	5.7e-09 	15.3 	16.5 	28.8 	28.8
2420 	9.541e-07 	5.4e-09 	15.4 	16.5 	29.5 	29.5
2430 	9.103e-07 	4.9e-09 	15.2 	16.5 	29.7 	29.7
2440 	8.495e-07 	4.7e-09 	15.0 	16.4 	30.3 	30.3
2450 	8.014e-07 	4.5e-09 	15.0 	16.3 	30.6 	30.6
2460 	7.557e-07 	4.5e-09 	15.5 	16.6 	30.7 	30.7
2470 	7.208e-07 	4.0e-09 	15.3 	16.5 	31.2 	31.2
2480 	6.784e-07 	3.8e-09 	15.4 	16.5 	31.6 	31.6
2490 	6.485e-07 	3.8e-09 	15.3 	16.5 	32.0 	32.0
2500 	6.150e-07 	3.8e-09 	16.0 	16.8 	32.5 	32.5
2510 	5.764e-07 	3.6e-09 	15.3 	16.5 	33.0 	33.0
2520 	5.447e-07 	3.0e-09 	15.1 	16.4 	33.6 	33.6
2530 	5.209e-07 	2.9e-09 	15.6 	16.7 	34.3 	34.3
2540 	4.910e-07 	2.7e-09 	15.4 	16.6 	34.3 	34.3
2550 	4.584e-07 	3.0e-09 	15.5 	16.6 	34.8 	34.8
2560 	4.352e-07 	2.5e-09 	15.5 	16.6 	35.4 	35.4
2570 	4.087e-07 	2.4e-09 	15.6 	16.7 	36.5 	36.5
2580 	3.897e-07 	2.2e-09 	15.7 	16.7 	36.1 	36.1
2590 	3.697e-07 	2.3e-09 	15.9 	16.8 	36.6 	36.6
2600 	3.470e-07 	2.0e-09 	15.6 	16.7 	37.3 	37.3
2610 	3.270e-07 	1.9e-09 	15.6 	16.7 	39.2 	39.2
2620 	3.109e-07 	1.8e-09 	15.8 	16.8 	39.0 	39.0
2630 	2.926e-07 	1.7e-09 	15.5 	16.7 	40.0 	40.0
2640 	2.754e-07 	1.6e-09 	15.6 	16.7 	40.5 	40.5
2650 	2.619e-07 	1.5e-09 	15.6 	16.7 	40.9 	40.9
2660 	2.491e-07 	1.7e-09 	16.1 	16.9 	42.0 	42.0
2670 	2.337e-07 	1.3e-09 	15.6 	16.7 	42.5 	42.5
2680 	2.236e-07 	1.2e-09 	15.8 	16.8 	43.0 	43.0
2690 	2.103e-07 	1.2e-09 	16.0 	16.9 	44.0 	44.0
2700 	1.990e-07 	1.2e-09 	15.9 	16.8 	44.6 	44.6
2710 	1.858e-07 	1.2e-09 	15.8 	16.8 	45.3 	45.3
2720 	1.770e-07 	1.0e-09 	15.9 	16.8 	45.9 	45.9
2730 	1.672e-07 	9.5e-10 	15.7 	16.7 	47.4 	47.4
2740 	1.574e-07 	8.7e-10 	15.7 	16.7 	47.6 	47.6
2750 	1.474e-07 	8.6e-10 	15.7 	16.7 	48.8 	48.8
2760 	1.401e-07 	7.9e-10 	15.8 	16.8 	49.5 	49.5
2770 	1.325e-07 	9.5e-10 	16.2 	16.9 	49.7 	49.7
2780 	1.251e-07 	7.1e-10 	16.0 	16.9 	52.0 	52.0
2790 	1.194e-07 	6.8e-10 	15.8 	16.8 	52.7 	52.7
2800 	1.122e-07 	6.5e-10 	15.9 	16.8 	54.9 	54.9
2810 	1.073e-07 	6.4e-10 	16.1 	16.9 	54.7 	54.7
2820 	1.007e-07 	5.7e-10 	16.0 	16.9 	55.5 	55.5
2830 	9.517e-08 	5.5e-10 	16.1 	16.9 	56.7 	56.7
2840 	8.980e-08 	5.1e-10 	16.0 	16.8 	58.7 	58.7
2850 	8.482e-08 	4.9e-10 	16.1 	16.9 	58.9 	58.9
2860 	8.062e-08 	4.7e-10 	15.9 	16.8 	61.3 	61.3
2870 	7.604e-08 	3.8e-10 	16.1 	16.9 	62.3 	62.3
2880 	7.138e-08 	3.6e-10 	16.0 	16.8 	63.4 	63.4
2890 	6.906e-08 	4.1e-10 	16.0 	16.8 	64.3 	64.3
2900 	6.403e-08 	3.7e-10 	16.0 	16.8 	66.4 	66.4
2910 	6.143e-08 	3.6e-10 	16.3 	17.0 	67.0 	67.0
2920 	5.739e-08 	3.3e-10 	16.0 	16.8 	69.1 	69.1
2930 	5.423e-08 	3.2e-10 	16.0 	16.8 	70.8 	70.8
2940 	5.121e-08 	3.0e-10 	15.9 	16.8 	72.3 	72.3
2950 	4.917e-08 	2.9e-10 	16.2 	16.9 	73.3 	73.3
2960 	4.613e-08 	2.6e-10 	15.9 	16.8 	75.6 	75.6
2970 	4.333e-08 	2.5e-10 	15.8 	16.7 	78.0 	78.0
2980 	4.079e-08 	2.4e-10 	15.8 	16.7 	79.4 	79.4
2990 	3.916e-08 	2.2e-10 	15.9 	16.7 	81.7 	81.7
3000 	3.698e-08 	2.4e-10 	16.2 	16.8 	83.3 	83.3
3500 	2.565e-09 	1.7e-11 	14.4 	15.5 	312.8 	312.8
4000 	2.426e-10 	1.2e-12 	13.4 	14.8 	3092.0 	3092.0
